#"+ESI MRM Frag=135.0V CID@10.0 (466.2 -> 325.3) 20230111_Volume_1_5_H-r001.d "
#Point,X(Minutes),Y(Counts)
0,0.005,1249782.875
1,0.016,1266387.375
2,0.027,1242720.625
3,0.038,1426081.25
4,0.049,1863008.5
5,0.060,2319572.75
6,0.071,2602383.5
7,0.082,2633351.5
8,0.093,2328987
9,0.104,1803891.125
10,0.115,1375713.5
11,0.126,1167177.625
12,0.137,1129914.75
13,0.147,1158763.625
14,0.158,1196877.125
15,0.169,1225611.5
16,0.180,1241717.5
17,0.191,1241561.5
18,0.202,1239549
19,0.213,1239073
20,0.224,1240232.125
21,0.235,1257781.375
22,0.246,1278394.875
23,0.257,1302594.125
24,0.268,1318587.25
25,0.279,1328794.875
26,0.290,1333116.25
27,0.301,1341134.375
28,0.312,1346351
29,0.323,1352443.25
30,0.334,1334279
31,0.345,1259391.75
32,0.355,1099625.5
33,0.366,875317.5
34,0.377,638899.4375
35,0.388,460877.6875
36,0.399,399183.75
37,0.410,499099.0625
38,0.421,723412.75
39,0.432,1002631.25
40,0.443,1257165.875
41,0.454,1436598.125
42,0.465,1504642
43,0.476,1494140.75
44,0.487,1442569.5
45,0.498,1382623.5
46,0.509,1336878.125
47,0.520,1321731.875
48,0.531,1301017.875
49,0.542,1284071.875
50,0.552,1282919.25
51,0.563,1280310.75
52,0.574,1276996.375
53,0.585,1287592.875
54,0.596,1294785.25
55,0.607,1287919.75
56,0.618,1282654.125
57,0.629,1278197.5
58,0.640,1265094.5
59,0.651,1244724.5
60,0.662,1224900.25
61,0.673,1207830.75
62,0.684,1190940
63,0.695,1187712.125
64,0.706,1196589.5
65,0.717,1212828.375
66,0.728,1228522.75
67,0.739,1245757.625
68,0.750,1256693
69,0.760,1267837.5
70,0.771,1277451.75
71,0.782,1281160.75
72,0.793,1283856.5
73,0.804,1291353.375
74,0.815,1296957.75
75,0.826,1297159.75
76,0.837,1302259.75
77,0.848,1304663.875
78,0.859,1306895.5
79,0.870,1311506.375
80,0.881,1308573.25
81,0.892,1308510
82,0.903,1308308.5
83,0.914,1306137.25
84,0.925,1307684.625
85,0.936,1325410.125
86,0.947,1344020.125
87,0.957,1360697.375
88,0.968,1382994.375
89,0.979,1392843.75
90,0.990,1402504.875
91,1.001,1405412.625
92,1.012,1410531.5
93,1.023,1418296
94,1.034,1431492
95,1.045,1442044.75
96,1.056,1459773.75
97,1.067,1476739.125
98,1.078,1486558.375
99,1.089,1499716.75
100,1.100,1515706.375
101,1.111,1516017.75
102,1.122,1516529.25
103,1.133,1517881.375
104,1.144,1511517.875
105,1.155,1503529.75
106,1.165,1508260.25
107,1.176,1507211.5
108,1.187,1505499.125
109,1.198,1503225.125
110,1.209,1500221.125
111,1.220,1502339
112,1.231,1504474.875
113,1.242,1504659
114,1.253,1505671.75
115,1.264,1503175.25
116,1.275,1487514.5
117,1.286,1474157.125
118,1.297,1453766.375
119,1.308,1443105.375
120,1.319,1428724.75
121,1.330,1436928
122,1.341,1451719.25
123,1.352,1474877.875
124,1.362,1499654.875
125,1.373,1534479.75
126,1.384,1564941.375
127,1.395,1591866.625
128,1.406,1625372
129,1.417,1656453.125
130,1.428,1695112.125
131,1.439,1747527.125
132,1.450,1844570.75
133,1.461,1995860.5
134,1.472,2184001.25
135,1.483,2376319
136,1.494,2571894.5
137,1.505,2736156.75
138,1.516,2863408.25
139,1.527,2994379
140,1.538,3116318
141,1.549,3209447
142,1.559,3300974
143,1.570,3401079.5
144,1.581,3468877
145,1.592,3517768.25
146,1.603,3532271.25
147,1.614,3510922.25
148,1.625,3452465.25
149,1.636,3419003
150,1.647,3408684.5
151,1.658,3432252
152,1.669,3469738.75
153,1.680,3520173.25
154,1.691,3554330.25
155,1.702,3571798.25
156,1.713,3573961
157,1.724,3559159.5
158,1.735,3540874.75
159,1.746,3516033.5
160,1.757,3487219.75
161,1.767,3449754.25
162,1.778,3411281
163,1.789,3361514.75
164,1.800,3330958.25
165,1.811,3310510
166,1.822,3279919.25
167,1.833,3258779
168,1.844,3245612.75
169,1.855,3214644
170,1.866,3191878
171,1.877,3166261
172,1.888,3142850.75
173,1.899,3111202.75
174,1.910,3070993.5
175,1.921,3014303.5
176,1.932,2967423
177,1.943,2915734
178,1.954,2895122
179,1.964,2917920.25
180,1.975,2974293
181,1.986,3075160.5
182,1.997,3189847.25
183,2.008,3336347
184,2.019,3512468.5
185,2.030,3713101.75
186,2.041,3915352.25
187,2.052,4156362.25
188,2.063,4400020
189,2.074,4656945
190,2.085,4914590.5
191,2.096,5231844
192,2.107,5543118
193,2.118,5876741.5
194,2.129,6219747
195,2.140,6575925.5
196,2.151,6921960
197,2.162,7289362.5
198,2.172,7616791.5
199,2.183,7924757.5
200,2.194,8202260
201,2.205,8421834
202,2.216,8602454
203,2.227,8749012
204,2.238,8805464
205,2.249,8795452
206,2.260,8746698
207,2.271,8697510
208,2.282,8667143
209,2.293,8657279
210,2.304,8690074
211,2.315,8723707
212,2.326,8739630
213,2.337,8731328
214,2.348,8720095
215,2.359,8666707
216,2.369,8551686
217,2.380,8377238.5
218,2.391,8182235.5
219,2.402,7918513
220,2.413,7533960
221,2.424,7148583.5
222,2.435,6745988.5
223,2.446,6369380.5
224,2.457,6029153.5
225,2.468,5796938
226,2.479,5577655
227,2.490,5376975
228,2.501,5159887.5
229,2.512,4936959
230,2.523,4675012.5
231,2.534,4443203
232,2.545,4205238.5
233,2.556,3980614.75
234,2.567,3787237.75
235,2.577,3621102
236,2.588,3440596
237,2.599,3296588.75
238,2.610,3180584
239,2.621,3089818.5
240,2.632,3007719.25
241,2.643,2937438.25
242,2.654,2869611
243,2.665,2780724.75
244,2.676,2702707.75
245,2.687,2623869.25
246,2.698,2549766
247,2.709,2499589.5
248,2.720,2457706.75
249,2.731,2417372.25
250,2.742,2373823.75
251,2.753,2333837.25
252,2.764,2294599.75
253,2.774,2266375
254,2.785,2244594.75
255,2.796,2239813.5
256,2.807,2232608.75
257,2.818,2233117.25
258,2.829,2232675.25
259,2.840,2237262.25
260,2.851,2239559.25
261,2.862,2244663.25
262,2.873,2232925.75
263,2.884,2219776.5
264,2.895,2198148.25
265,2.906,2189687.75
266,2.917,2181357.25
267,2.928,2190602.25
268,2.939,2204914.5
269,2.950,2224283.75
270,2.961,2233285.5
271,2.971,2247452.5
272,2.982,2258378
273,2.993,2274766
274,3.004,2282378.75
275,3.015,2290492.25
276,3.026,2287931.5
277,3.037,2296747.25
278,3.048,2317940.75
279,3.059,2346176.5
280,3.070,2417811.25
281,3.081,2570733.25
282,3.092,2911671
283,3.103,3191534
284,3.114,3395658.5
285,3.125,3519205.25
286,3.136,3589211.5
287,3.147,3561316
288,3.158,3671214
289,3.169,3849240.5
290,3.179,3973263.75
291,3.190,4001120
292,3.201,3936831.25
293,3.212,3811217.25
294,3.223,3670784.5
295,3.234,3548147.75
296,3.245,3445732.5
297,3.256,3349623.25
298,3.267,3262503.25
299,3.278,3165067
300,3.289,3066444
301,3.300,2997157.75
302,3.311,2962831
303,3.322,2967183.25
304,3.333,2982509.75
305,3.344,3015864
306,3.355,3037484
307,3.366,3047795.5
308,3.376,3050570.5
309,3.387,3057561.5
310,3.398,3070437.25
311,3.409,3079387
312,3.420,3095755.5
313,3.431,3125474.5
314,3.442,3143837.75
315,3.453,3152206.5
316,3.464,3155956.5
317,3.475,3127075
318,3.486,3053092.75
319,3.497,2974335.25
320,3.508,2891698
321,3.519,2820563.5
322,3.530,2793180.75
323,3.541,2785537.75
324,3.552,2801107.75
325,3.563,2823575.5
326,3.574,2860353.75
327,3.584,2904871.25
328,3.595,2947657.25
329,3.606,2999296.75
330,3.617,3040901.25
331,3.628,3065761.25
332,3.639,3086066.75
333,3.650,3108134.5
334,3.661,3103824.5
335,3.672,3112722.75
336,3.683,3085130.75
337,3.694,3029297.25
