#"+ESI MRM Frag=135.0V CID@10.0 (466.2 -> 325.3) 20230111_Volume_1_5_L-r003.d "
#Point,X(Minutes),Y(Counts)
0,0.005,1236495.5
1,0.016,1288366.125
2,0.027,1271420.875
3,0.038,1544738.5
4,0.049,2159897.5
5,0.060,2769953.25
6,0.071,3166034.75
7,0.082,3204147.5
8,0.093,2790943
9,0.104,2079842.125
10,0.115,1506281.5
11,0.126,1190149
12,0.137,1111531.625
13,0.147,1117951.875
14,0.158,1144967
15,0.169,1176127.25
16,0.180,1203578.875
17,0.191,1228290.5
18,0.202,1248050
19,0.213,1262964.875
20,0.224,1291858.75
21,0.235,1311901.375
22,0.246,1328525.25
23,0.257,1344822.125
24,0.268,1355011.5
25,0.279,1345308.625
26,0.290,1343601
27,0.301,1345302
28,0.312,1350278.875
29,0.323,1355835.625
30,0.334,1357796.75
31,0.345,1313661.75
32,0.355,1169451.25
33,0.366,946462
34,0.377,700408.0625
35,0.388,495326.96875
36,0.399,411523.3125
37,0.410,503007.875
38,0.421,732321
39,0.432,1029761.8125
40,0.443,1287793.75
41,0.454,1459104
42,0.465,1519743
43,0.476,1491442.625
44,0.487,1421672.125
45,0.498,1370312.75
46,0.509,1340734.125
47,0.520,1336222.125
48,0.531,1334683.5
49,0.542,1331722.625
50,0.552,1325604.375
51,0.563,1316916.375
52,0.574,1308224.125
53,0.585,1299651.875
54,0.596,1283844.625
55,0.607,1273487.875
56,0.618,1266101
57,0.629,1253608.375
58,0.640,1250521.875
59,0.651,1253948.75
60,0.662,1262502.125
61,0.673,1272716.125
62,0.684,1285240
63,0.695,1291131.625
64,0.706,1294046.875
65,0.717,1287256.375
66,0.728,1289560.375
67,0.739,1289487.25
68,0.750,1291178.5
69,0.760,1280717.5
70,0.771,1267096.125
71,0.782,1249348.125
72,0.793,1245822.5
73,0.804,1244287.5
74,0.815,1258492.375
75,0.826,1271830.125
76,0.837,1286967.25
77,0.848,1303217.25
78,0.859,1321558.125
79,0.870,1336603.75
80,0.881,1348440.875
81,0.892,1352688.375
82,0.903,1355855.125
83,0.914,1366596.625
84,0.925,1384596.875
85,0.936,1412596.875
86,0.947,1441428.875
87,0.957,1469356.875
88,0.968,1497690.5
89,0.979,1518739.75
90,0.990,1531794.375
91,1.001,1549763
92,1.012,1556885.375
93,1.023,1567794.25
94,1.034,1581666.375
95,1.045,1586730.25
96,1.056,1579117.5
97,1.067,1571802.25
98,1.078,1546560.875
99,1.089,1512176.25
100,1.100,1492249.5
101,1.111,1474391.125
102,1.122,1460127
103,1.133,1456721.375
104,1.144,1473044.375
105,1.155,1487844.25
106,1.165,1509564.25
107,1.176,1529530.875
108,1.187,1544504.875
109,1.198,1543291.5
110,1.209,1546999
111,1.220,1536362.25
112,1.231,1527077.5
113,1.242,1511219.25
114,1.253,1489787.25
115,1.264,1464156.375
116,1.275,1453996.25
117,1.286,1453265.75
118,1.297,1459343.75
119,1.308,1474625.375
120,1.319,1494967.625
121,1.330,1506820.875
122,1.341,1521366.875
123,1.352,1537760.375
124,1.362,1555668.375
125,1.373,1571760
126,1.384,1588390.625
127,1.395,1593077.375
128,1.406,1600089.125
129,1.417,1603394
130,1.428,1614097.125
131,1.439,1655282.375
132,1.450,1742426.5
133,1.461,1878622.875
134,1.472,2060827.375
135,1.483,2261144.25
136,1.494,2485159.25
137,1.505,2680160.25
138,1.516,2859164.25
139,1.527,3026687.25
140,1.538,3185274.75
141,1.549,3313571.5
142,1.559,3432854.75
143,1.570,3522331.5
144,1.581,3594853.25
145,1.592,3647015
146,1.603,3691229.75
147,1.614,3732861.5
148,1.625,3766284.5
149,1.636,3788478.25
150,1.647,3819479.75
151,1.658,3837342
152,1.669,3830209
153,1.680,3818995.5
154,1.691,3788039
155,1.702,3718872.25
156,1.713,3624502.25
157,1.724,3524027.5
158,1.735,3409566
159,1.746,3307474.25
160,1.757,3246769.25
161,1.767,3223678.75
162,1.778,3221655
163,1.789,3223651.75
164,1.800,3221972.75
165,1.811,3209506.25
166,1.822,3180843.75
167,1.833,3150357.25
168,1.844,3115341.25
169,1.855,3082010.5
170,1.866,3051623.5
171,1.877,3030067.75
172,1.888,3005144.5
173,1.899,2996751.25
174,1.910,2985186.5
175,1.921,2985585.75
176,1.932,3003608.5
177,1.943,3038918
178,1.954,3086393.25
179,1.964,3159922.5
180,1.975,3240219
181,1.986,3325183.25
182,1.997,3423665.75
183,2.008,3548507.75
184,2.019,3650146.75
185,2.030,3757337.25
186,2.041,3863714.25
187,2.052,3982739.5
188,2.063,4135328
189,2.074,4384076
190,2.085,4687102.5
191,2.096,5092001.5
192,2.107,5519209.5
193,2.118,5955527
194,2.129,6370247.5
195,2.140,6759727
196,2.151,7064457.5
197,2.162,7348353
198,2.172,7606239.5
199,2.183,7799263.5
200,2.194,7987355.5
201,2.205,8175703
202,2.216,8388936
203,2.227,8572175
204,2.238,8777284
205,2.249,8929784
206,2.260,9056336
207,2.271,9117487
208,2.282,9162001
209,2.293,9178279
210,2.304,9184691
211,2.315,9143774
212,2.326,9100345
213,2.337,9033229
214,2.348,8894403
215,2.359,8714435
216,2.369,8516058
217,2.380,8319108.5
218,2.391,8119859
219,2.402,7938427
220,2.413,7706431.5
221,2.424,7439186.5
222,2.435,7079916
223,2.446,6717308.5
224,2.457,6354862
225,2.468,6027015.5
226,2.479,5740761.5
227,2.490,5479711
228,2.501,5214259.5
229,2.512,4965951.5
230,2.523,4687206.5
231,2.534,4437067.5
232,2.545,4223298
233,2.556,4039667.25
234,2.567,3863577.75
235,2.577,3733137
236,2.588,3576343.25
237,2.599,3430496.5
238,2.610,3300455.25
239,2.621,3183039.5
240,2.632,3072072.5
241,2.643,2979690.75
242,2.654,2887909.25
243,2.665,2785513.75
244,2.676,2693459.5
245,2.687,2612068
246,2.698,2537802.5
247,2.709,2482365
248,2.720,2433238.5
249,2.731,2405028.25
250,2.742,2378211.25
251,2.753,2363847.25
252,2.764,2346106.25
253,2.774,2336815.5
254,2.785,2319457.5
255,2.796,2312037
256,2.807,2306361
257,2.818,2299034.25
258,2.829,2293377
259,2.840,2275881.75
260,2.851,2263874
261,2.862,2267779.75
262,2.873,2286082
263,2.884,2292478
264,2.895,2304317.25
265,2.906,2314215.75
266,2.917,2313785
267,2.928,2310121.75
268,2.939,2326440.25
269,2.950,2336051
270,2.961,2343026.5
271,2.972,2343443.75
272,2.982,2346469.5
273,2.993,2331745.5
274,3.004,2329229.5
275,3.015,2329027.5
276,3.026,2343985.25
277,3.037,2355751
278,3.048,2390641.5
279,3.059,2426400.75
280,3.070,2473343.25
281,3.081,2575975.5
282,3.092,2819488.75
283,3.103,3146957.25
284,3.114,3499204
285,3.125,3818076
286,3.136,4021738
287,3.147,4036036.25
288,3.158,3946102.75
289,3.169,3826667.25
290,3.179,3686922.5
291,3.190,3577672.5
292,3.201,3501612.75
293,3.212,3424088.25
294,3.223,3374337
295,3.234,3335701
296,3.245,3285848.25
297,3.256,3244118.75
298,3.267,3195864.75
299,3.278,3126552.25
300,3.289,3055999.25
301,3.300,3005507.75
302,3.311,2959444
303,3.322,2964501.25
304,3.333,2989525.25
305,3.344,3030548.25
306,3.355,3065018.25
307,3.366,3107366.5
308,3.376,3136407
309,3.387,3171753.25
310,3.398,3201476
311,3.409,3229309
312,3.420,3261740.5
313,3.431,3287146.25
314,3.442,3298184.75
315,3.453,3309490.5
316,3.464,3323287.25
317,3.475,3313500
318,3.486,3319515.5
319,3.497,3320445.75
320,3.508,3341765
321,3.519,3339282.25
322,3.530,3320679.5
323,3.541,3286282.25
324,3.552,3253281.25
325,3.563,3206596.5
326,3.574,3177662.25
327,3.584,3180860
328,3.595,3189848
329,3.606,3211415
330,3.617,3240072.5
331,3.628,3255721.75
332,3.639,3275791.5
333,3.650,3283792.75
334,3.661,3289469.75
335,3.672,3296091
336,3.683,3301041.75
337,3.694,3327356.5
