#"+ESI MRM Frag=135.0V CID@10.0 (466.2 -> 325.3) 20230111_B06-r002.d "
#Point,X(Minutes),Y(Counts)
0,0.005,1243746.75
1,0.016,1271895.375
2,0.027,1281204.75
3,0.038,1505307.125
4,0.049,1992458
5,0.060,2502861.25
6,0.071,2805512.75
7,0.082,2834279.25
8,0.093,2487513.5
9,0.104,1907149.75
10,0.115,1413331.625
11,0.126,1164444.75
12,0.137,1096965
13,0.147,1116332.25
14,0.158,1160639.125
15,0.169,1207892.375
16,0.180,1242040.75
17,0.191,1263346.25
18,0.202,1276417.875
19,0.213,1286707.75
20,0.224,1291283.125
21,0.235,1301677.25
22,0.246,1317286.625
23,0.257,1330706.25
24,0.268,1339745.75
25,0.279,1343914.875
26,0.290,1345742.625
27,0.301,1343045.25
28,0.312,1341507.125
29,0.323,1342613
30,0.334,1308981
31,0.345,1181161.25
32,0.355,955055.5625
33,0.366,681190.75
34,0.377,405412.65625
35,0.388,194244.6875
36,0.399,98350.3671875
37,0.410,107786.625
38,0.421,181132.390625
39,0.432,296186.75
40,0.443,438404.40625
41,0.454,582919.4375
42,0.465,713994.4375
43,0.476,816617.4375
44,0.487,895289.4375
45,0.498,948230.625
46,0.509,998917.8125
47,0.520,1038895.375
48,0.531,1071705.375
49,0.542,1097324.125
50,0.552,1123699.125
51,0.563,1141176.25
52,0.574,1156843.25
53,0.585,1166709.25
54,0.596,1172180
55,0.607,1181693.5
56,0.618,1192096.875
57,0.629,1206011.25
58,0.640,1225201
59,0.651,1244725.875
60,0.662,1256444.125
61,0.673,1271405.75
62,0.684,1283838
63,0.695,1294777.125
64,0.706,1303700.625
65,0.717,1313816.5
66,0.728,1313922
67,0.739,1312346.875
68,0.750,1300323.5
69,0.760,1286612.75
70,0.771,1272582.125
71,0.782,1266603.5
72,0.793,1267379.875
73,0.804,1272988.75
74,0.815,1284036.375
75,0.826,1286911.75
76,0.837,1290510.625
77,0.848,1294179
78,0.859,1301749
79,0.870,1308253.5
80,0.881,1318649.625
81,0.892,1324997.125
82,0.903,1337353.5
83,0.914,1356032.875
84,0.925,1387763.75
85,0.936,1442346.875
86,0.947,1505588.375
87,0.957,1558574.25
88,0.968,1594736
89,0.979,1607917.875
90,0.990,1598696.75
91,1.001,1581106.25
92,1.012,1562998.5
93,1.023,1548355.125
94,1.034,1538308.125
95,1.045,1527009.75
96,1.056,1505307.125
97,1.067,1483392.875
98,1.078,1463958.625
99,1.089,1447350.875
100,1.100,1445407.75
101,1.111,1457413.375
102,1.122,1473198
103,1.133,1492053.5
104,1.144,1505423.25
105,1.155,1513387
106,1.165,1513919.25
107,1.176,1514520.125
108,1.187,1505239.125
109,1.198,1496494.125
110,1.209,1490402.5
111,1.220,1490143.625
112,1.231,1482822
113,1.242,1477461.5
114,1.253,1477050.875
115,1.264,1471645.125
116,1.275,1472976.375
117,1.286,1483755.125
118,1.297,1506865.125
119,1.308,1521482.625
120,1.319,1544812.25
121,1.330,1556155.25
122,1.341,1567573.375
123,1.352,1574247.5
124,1.362,1583061.875
125,1.373,1583403.5
126,1.384,1592567
127,1.395,1584964.375
128,1.406,1589176.25
129,1.417,1606015.125
130,1.428,1635750.5
131,1.439,1702316.625
132,1.450,1832253.75
133,1.461,2009643.5
134,1.472,2212150.75
135,1.483,2424070.5
136,1.494,2590315.75
137,1.505,2694303.25
138,1.516,2761797
139,1.527,2824487.5
140,1.538,2915725
141,1.549,3073349
142,1.560,3358425
143,1.570,3710323.5
144,1.581,4051774.25
145,1.592,4289173.5
146,1.603,4384744
147,1.614,4316100
148,1.625,4173904.25
149,1.636,4030147.25
150,1.647,3929946.75
151,1.658,3859955.75
152,1.669,3803960.25
153,1.680,3739446.25
154,1.691,3663721.5
155,1.702,3571266.75
156,1.713,3471331.5
157,1.724,3360545.25
158,1.735,3290362.75
159,1.746,3259224.75
160,1.757,3267672
161,1.767,3289606
162,1.778,3315202.75
163,1.789,3292310
164,1.800,3263137.75
165,1.811,3214488.75
166,1.822,3170371
167,1.833,3134492
168,1.844,3114491.5
169,1.855,3081561.25
170,1.866,3037623
171,1.877,3000939
172,1.888,2958764
173,1.899,2934503.5
174,1.910,2919974
175,1.921,2932098.5
176,1.932,2948967.5
177,1.943,2997643.75
178,1.954,3032141.25
179,1.964,3090117
180,1.975,3162361.5
181,1.986,3246748.75
182,1.997,3340333
183,2.008,3456313.5
184,2.019,3558366.25
185,2.030,3673194.5
186,2.041,3789905
187,2.052,3946006.75
188,2.063,4171096
189,2.074,4440762
190,2.085,4768601
191,2.096,5132234.5
192,2.107,5501694.5
193,2.118,5843586.5
194,2.129,6188305
195,2.140,6491285.5
196,2.151,6705758
197,2.162,6788922
198,2.172,6791420
199,2.183,6709379.5
200,2.194,6699409
201,2.205,6856798
202,2.216,7169640
203,2.227,7548214.5
204,2.238,7966038.5
205,2.249,8262047.5
206,2.260,8470938
207,2.271,8560363
208,2.282,8600351
209,2.293,8578768
210,2.304,8521823
211,2.315,8424772
212,2.326,8324949
213,2.337,8158570
214,2.348,7998553
215,2.359,7847386
216,2.369,7740032.5
217,2.380,7648523
218,2.391,7610987.5
219,2.402,7519886.5
220,2.413,7323880
221,2.424,7041273
222,2.435,6709728
223,2.446,6371361
224,2.457,6051399.5
225,2.468,5843221.5
226,2.479,5636806
227,2.490,5445400.5
228,2.501,5208345.5
229,2.512,4968091
230,2.523,4721269
231,2.534,4506968
232,2.545,4319743
233,2.556,4169686.5
234,2.567,4028164.75
235,2.577,3877830.75
236,2.588,3747196.75
237,2.599,3617669.5
238,2.610,3493366
239,2.621,3392513.25
240,2.632,3304835.75
241,2.643,3200126.25
242,2.654,3107863.25
243,2.665,3013728.5
244,2.676,2937041.25
245,2.687,2853288.75
246,2.698,2798148.25
247,2.709,2745113.75
248,2.720,2701153.5
249,2.731,2638866.5
250,2.742,2591707.25
251,2.753,2553135.25
252,2.764,2523133.5
253,2.774,2511601.25
254,2.785,2519813.5
255,2.796,2519990
256,2.807,2511474
257,2.818,2514121.5
258,2.829,2511538
259,2.840,2524228.75
260,2.851,2549962.25
261,2.862,2593655.5
262,2.873,2628378
263,2.884,2655333.25
264,2.895,2671179.5
265,2.906,2677828.5
266,2.917,2681511.5
267,2.928,2692241.5
268,2.939,2716273.5
269,2.950,2748628.25
270,2.961,2787436.25
271,2.972,2793998
272,2.982,2799770.75
273,2.993,2795591.5
274,3.004,2789139.75
275,3.015,2802606.5
276,3.026,2866865.25
277,3.037,2936797.25
278,3.048,3027055.5
279,3.059,3131552.25
280,3.070,3277574
281,3.081,3424623.5
282,3.092,3301978.25
283,3.103,2952581.25
284,3.114,2482167.75
285,3.125,1976616.125
286,3.136,1561676
287,3.147,1508691.625
288,3.158,1668996.25
289,3.169,1930444.875
290,3.179,2230175.25
291,3.190,2556323
292,3.201,2881088
293,3.212,3182652.5
294,3.223,3412272
295,3.234,3585697.75
296,3.245,3666682.75
297,3.256,3674560.25
298,3.267,3615435.5
299,3.278,3530942
300,3.289,3412686.25
301,3.300,3303562.5
302,3.311,3209666.5
303,3.322,3138459
304,3.333,3092099.75
305,3.344,3066308
306,3.355,3053010.75
307,3.366,3048069.75
308,3.376,3050779.5
309,3.387,3053022.25
310,3.398,3064096.25
311,3.409,3079790
312,3.420,3088466.25
313,3.431,3085477.25
314,3.442,3080622.5
315,3.453,3073905.75
316,3.464,3061901
317,3.475,3050261.75
318,3.486,3053896.25
319,3.497,3064860.5
320,3.508,3054585.75
321,3.519,3063319.5
322,3.530,3061057.75
323,3.541,3038585.75
324,3.552,2997972.25
325,3.563,2978396.75
326,3.574,2943722.5
327,3.584,2930272
328,3.595,2929711
329,3.606,2933961.75
330,3.617,2927783.5
331,3.628,2930177.75
332,3.639,2937591.5
333,3.650,2945152
334,3.661,2957615
335,3.672,2965518.5
336,3.683,2996771.5
337,3.694,3055247
