#"+ESI MRM Frag=135.0V CID@10.0 (466.2 -> 325.3) 20230111_Volume_1_5_L-r005.d "
#Point,X(Minutes),Y(Counts)
0,0.005,1340634.375
1,0.016,1356864.25
2,0.027,1368158.125
3,0.038,1585930.375
4,0.049,2076660.5
5,0.060,2583034.5
6,0.071,2873783.25
7,0.082,2872988.75
8,0.093,2514762
9,0.104,1913647
10,0.115,1422334
11,0.126,1192559.625
12,0.137,1163084.875
13,0.147,1205913.625
14,0.158,1256825.5
15,0.169,1299310.375
16,0.180,1318827.25
17,0.191,1331231.75
18,0.202,1335986.875
19,0.213,1339885.125
20,0.224,1341070.375
21,0.235,1341326.625
22,0.246,1343632.875
23,0.257,1353675
24,0.268,1360815.625
25,0.279,1375774.375
26,0.290,1390761.25
27,0.301,1391910.125
28,0.312,1393136.75
29,0.323,1403168.625
30,0.334,1396554
31,0.345,1339186.75
32,0.355,1190343.625
33,0.366,960998.9375
34,0.377,702650
35,0.388,491300.125
36,0.399,407764.28125
37,0.410,501129.6875
38,0.421,734588.875
39,0.432,1029816
40,0.443,1309969.5
41,0.454,1500613.5
42,0.465,1584137.875
43,0.476,1577732.25
44,0.487,1523949.875
45,0.498,1458433.375
46,0.509,1415592.25
47,0.520,1392142.375
48,0.531,1374156.625
49,0.542,1359374.5
50,0.552,1344560.25
51,0.563,1329557.75
52,0.574,1306997
53,0.585,1294930.125
54,0.596,1287197.375
55,0.607,1282748.625
56,0.618,1285028.25
57,0.629,1289535.875
58,0.640,1290657.875
59,0.651,1294501.375
60,0.662,1299541
61,0.673,1300458.125
62,0.684,1311003.625
63,0.695,1309984.375
64,0.706,1310131.875
65,0.717,1299029.25
66,0.728,1285503.75
67,0.739,1272392.375
68,0.750,1276024.375
69,0.760,1284910.375
70,0.771,1299557.5
71,0.782,1318207.5
72,0.793,1329301.125
73,0.804,1337530.5
74,0.815,1347172.875
75,0.826,1356451.25
76,0.837,1365951.125
77,0.848,1373689.375
78,0.859,1376067.125
79,0.870,1373731.875
80,0.881,1370773
81,0.892,1362832.25
82,0.903,1357921.75
83,0.914,1365820.75
84,0.925,1383556.75
85,0.936,1416294.125
86,0.947,1463868.25
87,0.957,1513665.75
88,0.968,1557938.5
89,0.979,1593382
90,0.990,1618519.625
91,1.001,1629386.25
92,1.012,1640074.25
93,1.023,1627558.25
94,1.034,1599609.875
95,1.045,1567918.5
96,1.056,1535948.25
97,1.067,1513563.25
98,1.078,1518463.75
99,1.089,1535999.625
100,1.100,1557163.25
101,1.111,1576964.25
102,1.122,1590004.625
103,1.133,1593063.125
104,1.144,1596243.75
105,1.155,1595511.125
106,1.165,1596306
107,1.176,1598225.375
108,1.187,1595822
109,1.198,1587425.875
110,1.209,1577261.5
111,1.220,1571325.75
112,1.231,1566960.25
113,1.242,1569185.75
114,1.253,1572327.625
115,1.264,1581602
116,1.275,1577388.875
117,1.286,1578512.25
118,1.297,1579279
119,1.308,1580116.25
120,1.319,1575808.625
121,1.330,1573323.625
122,1.341,1564915.125
123,1.352,1553559
124,1.362,1536125.875
125,1.373,1525377.375
126,1.384,1545399.125
127,1.395,1567068.75
128,1.406,1610267.625
129,1.417,1664452.125
130,1.428,1719317.375
131,1.439,1783543.375
132,1.450,1911591.625
133,1.461,2088682.375
134,1.472,2302536.75
135,1.483,2543162
136,1.494,2771031.5
137,1.505,2967373.75
138,1.516,3123293
139,1.527,3277562.75
140,1.538,3425082.75
141,1.549,3556582
142,1.559,3684151.25
143,1.570,3801857.5
144,1.581,3881181
145,1.592,3936931.5
146,1.603,3970293
147,1.614,3979063
148,1.625,3986103
149,1.636,3967083.5
150,1.647,3933213
151,1.658,3864923.25
152,1.669,3756197
153,1.680,3623088.25
154,1.691,3531866.75
155,1.702,3458723.75
156,1.713,3434517.75
157,1.724,3438996.5
158,1.735,3460921
159,1.746,3460911
160,1.757,3457416.5
161,1.767,3437496
162,1.778,3397567.5
163,1.789,3356494.75
164,1.800,3296562.75
165,1.811,3253639.5
166,1.822,3202952.75
167,1.833,3160296
168,1.844,3103384.75
169,1.855,3047039.5
170,1.866,2990780
171,1.877,2960450.25
172,1.888,2932160.75
173,1.899,2914214
174,1.910,2928252.25
175,1.921,2929552.75
176,1.932,2942832.75
177,1.943,2971773.25
178,1.954,3012728.5
179,1.964,3058236.5
180,1.975,3094118.25
181,1.986,3124577.75
182,1.997,3147769.5
183,2.008,3191825.75
184,2.019,3301741.75
185,2.030,3466089.25
186,2.041,3693559.5
187,2.052,3981920
188,2.063,4294365.5
189,2.074,4622498.5
190,2.085,4996137.5
191,2.096,5364347.5
192,2.107,5728334.5
193,2.118,6079665.5
194,2.129,6389381.5
195,2.140,6705571.5
196,2.151,6974768
197,2.162,7228326.5
198,2.172,7435751.5
199,2.183,7636507.5
200,2.194,7823529.5
201,2.205,8022599.5
202,2.216,8183084.5
203,2.227,8345936.5
204,2.238,8490685
205,2.249,8589109
206,2.260,8704205
207,2.271,8793550
208,2.282,8869249
209,2.293,8861148
210,2.304,8799307
211,2.315,8716076
212,2.326,8634815
213,2.337,8557682
214,2.348,8513370
215,2.359,8476022
216,2.369,8403850
217,2.380,8307468.5
218,2.391,8161180
219,2.402,7941010.5
220,2.413,7663814.5
221,2.424,7291778
222,2.435,6874288
223,2.446,6460826.5
224,2.457,6095166
225,2.468,5739381
226,2.479,5462088
227,2.490,5224481
228,2.501,4994369.5
229,2.512,4780692
230,2.523,4589746
231,2.534,4371925
232,2.545,4137380.75
233,2.556,3926652.75
234,2.567,3718769.5
235,2.577,3525200.5
236,2.588,3366034.75
237,2.599,3227073.5
238,2.610,3080037.25
239,2.621,2940164.75
240,2.632,2818453.25
241,2.643,2708290
242,2.654,2620659
243,2.665,2553752.25
244,2.676,2507126
245,2.687,2465141.5
246,2.698,2430100.75
247,2.709,2407677
248,2.720,2394621.25
249,2.731,2396487.25
250,2.742,2389682.25
251,2.753,2377900.25
252,2.764,2351693.25
253,2.774,2332455.75
254,2.785,2303547
255,2.796,2293599.25
256,2.807,2288069.25
257,2.818,2284419.25
258,2.829,2283697.5
259,2.840,2281335
260,2.851,2275892.25
261,2.862,2264777.75
262,2.873,2269592.25
263,2.884,2264540
264,2.895,2262049
265,2.906,2265849
266,2.917,2275880.25
267,2.928,2269490
268,2.939,2268486
269,2.950,2270035.25
270,2.961,2256057
271,2.971,2256555
272,2.982,2267362.5
273,2.993,2274009.25
274,3.004,2290470
275,3.015,2306799
276,3.026,2318691.75
277,3.037,2341237.25
278,3.048,2366763
279,3.059,2396301.25
280,3.070,2438700.75
281,3.081,2526734
282,3.092,2736469.75
283,3.103,3051329.25
284,3.114,3399339
285,3.125,3727631.5
286,3.136,3944438
287,3.147,3982379.75
288,3.158,3910715.75
289,3.169,3802291.25
290,3.179,3682658.25
291,3.190,3568059.25
292,3.201,3482172.5
293,3.212,3409119.25
294,3.223,3343386.75
295,3.234,3283768.75
296,3.245,3238137.5
297,3.256,3169378.25
298,3.267,3096012
299,3.278,3017928.5
300,3.289,2946883.5
301,3.300,2908096.25
302,3.311,2895890.75
303,3.322,2920857.5
304,3.333,2969753.5
305,3.344,3036584
306,3.355,3094562.5
307,3.366,3141261.25
308,3.376,3165635.75
309,3.387,3183121.25
310,3.398,3191371
311,3.409,3202770.5
312,3.420,3231332.75
313,3.431,3252347
314,3.442,3258476.5
315,3.453,3268628
316,3.464,3270858.25
317,3.475,3271941
318,3.486,3286500
319,3.497,3316612.75
320,3.508,3321601.25
321,3.519,3319828
322,3.530,3308088
323,3.541,3276833.5
324,3.552,3229828
325,3.563,3190462.25
326,3.574,3158787.5
327,3.584,3143193.75
328,3.595,3165395
329,3.606,3203225.75
330,3.617,3255053.75
331,3.628,3301635.5
332,3.639,3343516.5
333,3.650,3357894.75
334,3.661,3381197
335,3.672,3367458.5
336,3.683,3413993.5
337,3.694,3314609.75
